SampleIdent,100gs Sample 2,/
Title1,Exported by X'Pert SW,/
Title2,Generated by User-1 in project Jan 2007.,/
DiffrType,PW3710,/
DiffrNumber,  1,/
Anode,Co,/
LabdaAlpha1, 1.78901,/
LabdaAlpha2, 1.79290,/
RatioAlpha21, 0.50000,/
DivergenceSlit,Fixed, 1.00,/
ReceivingSlit, 0.20,/
MonochromatorUsed,NO  ,/
GeneratorVoltage,  10,/
TubeCurrent,  10,/
FileDateTime, 22/02/2007 15:39:00,/
DataAngleRange,  45.0050, 124.9850,/
ScanStepSize,   0.030,/
ScanType,Continuous,/
ScanStepTime,  25.00,/
RawScan
     590,     562,     562,     543,     605,     576,     576,     543
     543,     581,     524,     590,     562,     524,     571,     566
     590,     620,     529,     586,     571,     566,     562,     566
     610,     543,     520,     571,     543,     581,     571,     502
     557,     586,     543,     566,     586,     576,     571,     557
     576,     600,     610,     552,     586,     586,     557,     543
     562,     566,     595,     566,     566,     562,     571,     586
     605,     566,     595,     595,     576,     586,     534,     538
     600,     576,     562,     562,     645,     586,     610,     548
     538,     552,     529,     590,     543,     615,     605,     581
     645,     600,     595,     600,     576,     566,     586,     548
     557,     605,     600,     576,     586,     595,     566,     571
     557,     595,     571,     576,     529,     625,     566,     590
     571,     620,     590,     557,     625,     600,     595,     605
     562,     595,     581,     534,     605,     605,     610,     586
     552,     571,     605,     605,     571,     600,     590,     590
     566,     586,     576,     620,     610,     571,     625,     605
     576,     576,     566,     543,     566,     590,     620,     610
     605,     615,     595,     586,     635,     625,     645,     635
     630,     595,     645,     615,     640,     576,     586,     645
     600,     590,     620,     640,     666,     586,     595,     645
     635,     595,     640,     686,     630,     615,     600,     666
     625,     625,     671,     671,     676,     666,     724,     660
     640,     660,     734,     724,     708,     767,     835,     858
     906,     967,     980,    1050,    1116,    1232,    1376,    1832
    3091,    6823,   12388,   14593,   10816,    7832,    7779,    7569
    5184,    2948,    1714,    1340,    1296,    1129,    1116,     967
     906,     894,     882,     801,     756,     708,     745,     640
     702,     697,     655,     620,     671,     645,     692,     686
     681,     650,     650,     718,     620,     620,     713,     681
     686,     595,     702,     655,     650,     671,     681,     660
     650,     605,     586,     581,     605,     630,     645,     581
     671,     630,     645,     620,     692,     605,     671,     610
     620,     630,     595,     615,     586,     620,     625,     630
     660,     650,     595,     590,     671,     571,     625,     625
     615,     635,     620,     635,     610,     640,     610,     650
     590,     681,     655,     640,     640,     620,     581,     595
     581,     615,     605,     586,     600,     660,     660,     581
     625,     600,     595,     595,     635,     666,     630,     595
     605,     581,     620,     610,     595,     576,     615,     595
     595,     645,     590,     625,     640,     576,     625,     620
     581,     557,     635,     595,     605,     615,     615,     581
     615,     605,     586,     635,     660,     605,     610,     586
     650,     630,     620,     635,     640,     615,     605,     650
     600,     666,     620,     620,     645,     650,     595,     620
     686,     655,     615,     610,     630,     590,     620,     620
     595,     615,     605,     620,     650,     571,     620,     640
     640,     615,     635,     645,     640,     620,     605,     615
     645,     605,     686,     650,     620,     595,     655,     640
     610,     600,     586,     571,     615,     681,     615,     640
     576,     605,     630,     635,     595,     650,     686,     610
     645,     576,     635,     620,     635,     655,     581,     630
     581,     635,     625,     630,     650,     630,     660,     586
     640,     655,     620,     640,     650,     610,     650,     676
     650,     686,     630,     600,     645,     630,     610,     655
     666,     650,     610,     655,     660,     630,     620,     666
     650,     671,     666,     681,     650,     650,     660,     660
     697,     630,     702,     676,     681,     676,     660,     660
     686,     681,     681,     676,     650,     729,     734,     729
     729,     807,     824,     847,     973,    1056,    1122,    1183
    1239,    1414,    1576,    1632,    1656,    1866,    2294,    3399
    5358,    7744,   12499,   22771,   33709,   29964,   17716,   12589
   15351,   17530,   12254,    6068,    3272,    2285,    1840,    1467
    1289,    1170,    1011,     973,     882,     858,     784,     773
     734,     762,     734,     751,     734,     718,     724,     676
     676,     655,     671,     713,     676,     666,     645,     630
     681,     666,     671,     666,     686,     630,     640,     660
     625,     625,     655,     666,     630,     640,     620,     615
     625,     640,     635,     625,     660,     610,     615,     635
     625,     620,     666,     600,     610,     630,     681,     620
     666,     615,     605,     610,     676,     610,     645,     600
     615,     620,     650,     645,     660,     660,     666,     625
     660,     655,     625,     635,     600,     625,     620,     615
     610,     666,     605,     650,     625,     586,     630,     650
     681,     590,     615,     615,     620,     625,     645,     660
     635,     595,     660,     625,     620,     620,     615,     605
     645,     615,     650,     605,     610,     605,     635,     655
     605,     635,     630,     595,     615,     610,     625,     610
     600,     620,     605,     645,     625,     640,     660,     620
     610,     615,     620,     615,     615,     615,     666,     625
     645,     586,     620,     625,     615,     702,     666,     605
     600,     620,     660,     660,     605,     581,     595,     650
     605,     635,     620,     600,     581,     630,     645,     610
     625,     571,     655,     640,     660,     620,     650,     640
     605,     586,     620,     615,     655,     625,     655,     600
     620,     650,     655,     615,     655,     620,     671,     666
     630,     615,     610,     625,     645,     630,     620,     605
     655,     660,     610,     625,     620,     640,     660,     635
     605,     650,     586,     615,     625,     630,     645,     610
     620,     666,     590,     660,     635,     605,     655,     635
     640,     610,     640,     625,     625,     620,     600,     635
     625,     595,     625,     615,     615,     666,     635,     630
     625,     681,     590,     581,     686,     640,     586,     586
     610,     625,     625,     645,     630,     610,     615,     681
     655,     635,     655,     640,     625,     625,     615,     630
     610,     620,     625,     676,     635,     640,     571,     625
     620,     660,     615,     625,     610,     605,     576,     645
     595,     620,     620,     605,     645,     655,     625,     640
     610,     666,     635,     635,     660,     620,     630,     625
     681,     610,     620,     660,     671,     681,     635,     650
     625,     681,     645,     605,     666,     630,     666,     645
     635,     630,     676,     610,     630,     615,     625,     615
     635,     635,     620,     625,     645,     562,     640,     640
     615,     620,     630,     640,     645,     625,     615,     640
     666,     645,     660,     676,     590,     635,     676,     635
     645,     655,     615,     640,     650,     635,     630,     576
     605,     625,     625,     645,     666,     625,     697,     650
     666,     660,     655,     650,     620,     586,     615,     543
     630,     610,     660,     635,     666,     650,     666,     566
     635,     660,     590,     615,     610,     625,     620,     671
     586,     660,     660,     671,     650,     660,     666,     666
     630,     630,     605,     625,     615,     655,     660,     676
     625,     635,     635,     640,     640,     620,     666,     625
     620,     650,     650,     702,     600,     655,     655,     625
     625,     660,     655,     671,     655,     630,     576,     650
     630,     650,     620,     655,     650,     625,     581,     645
     635,     635,     635,     655,     635,     615,     640,     645
     600,     615,     640,     681,     620,     630,     676,     595
     645,     660,     625,     620,     630,     605,     645,     655
     635,     640,     605,     655,     650,     640,     581,     655
     676,     635,     686,     655,     671,     650,     655,     671
     660,     600,     660,     640,     660,     640,     600,     620
     645,     645,     630,     645,     645,     676,     630,     630
     640,     660,     666,     655,     660,     600,     686,     655
     676,     605,     697,     645,     625,     615,     660,     571
     640,     650,     635,     576,     666,     630,     640,     671
     676,     676,     708,     655,     640,     660,     660,     635
     655,     660,     586,     640,     635,     660,     640,     640
     645,     702,     666,     655,     645,     610,     666,     686
     645,     686,     625,     635,     610,     676,     615,     692
     635,     650,     666,     666,     660,     605,     645,     702
     630,     666,     645,     581,     692,     620,     655,     640
     655,     645,     697,     625,     640,     640,     671,     640
     625,     625,     635,     671,     681,     625,     655,     655
     650,     625,     671,     681,     650,     610,     660,     610
     660,     605,     650,     671,     630,     660,     625,     635
     681,     645,     635,     660,     645,     655,     671,     600
     610,     620,     635,     635,     676,     650,     630,     620
     635,     640,     650,     630,     630,     655,     645,     650
     645,     676,     630,     686,     676,     590,     666,     666
     676,     655,     645,     640,     686,     630,     692,     676
     671,     666,     640,     697,     676,     660,     595,     660
     640,     640,     650,     666,     681,     671,     681,     605
     666,     666,     640,     640,     681,     650,     655,     702
     645,     630,     686,     660,     686,     681,     586,     625
     676,     605,     650,     666,     713,     620,     640,     681
     676,     645,     645,     625,     692,     666,     640,     666
     625,     645,     697,     635,     615,     660,     610,     660
     650,     630,     635,     666,     650,     708,     671,     645
     610,     620,     645,     660,     666,     713,     640,     676
     635,     686,     630,     671,     615,     681,     655,     655
     713,     630,     630,     681,     650,     708,     625,     676
     666,     655,     640,     681,     645,     681,     676,     676
     686,     645,     660,     655,     635,     708,     660,     660
     650,     655,     655,     671,     686,     615,     630,     666
     671,     635,     586,     660,     676,     655,     640,     713
     671,     671,     676,     650,     640,     655,     681,     660
     686,     681,     650,     645,     650,     640,     635,     692
     671,     630,     702,     671,     686,     655,     635,     713
     692,     697,     666,     666,     615,     671,     676,     686
     655,     660,     650,     660,     702,     671,     702,     655
     650,     660,     640,     697,     605,     610,     686,     650
     692,     686,     660,     650,     713,     676,     645,     660
     713,     686,     650,     666,     671,     645,     676,     660
     620,     655,     650,     686,     692,     681,     708,     676
     650,     676,     655,     686,     640,     686,     676,     702
     650,     681,     625,     666,     724,     666,     640,     676
     671,     671,     650,     671,     666,     676,     650,     645
     671,     702,     697,     681,     635,     645,     724,     692
     718,     692,     655,     692,     676,     724,     686,     650
     692,     666,     692,     708,     635,     745,     713,     697
     692,     708,     671,     635,     708,     645,     692,     660
     676,     734,     681,     708,     635,     625,     630,     645
     676,     692,     625,     671,     660,     697,     625,     686
     702,     718,     671,     671,     655,     702,     650,     671
     734,     681,     676,     718,     713,     708,     713,     681
     745,     734,     713,     724,     740,     681,     713,     724
     740,     751,     718,     751,     676,     724,     734,     702
     708,     692,     655,     740,     708,     740,     702,     756
     702,     702,     718,     718,     778,     734,     773,     697
     756,     740,     767,     751,     734,     762,     762,     773
     745,     784,     841,     762,     818,     801,     818,     858
     807,     847,     858,     847,     853,     961,     936,    1050
    1122,    1170,    1225,    1362,    1452,    1459,    1576,    1584
    1756,    1781,    1945,    2079,    2401,    2683,    3272,    4516
    6610,   11257,   20392,   32797,   40925,   39521,   29618,   18934
   12589,   11130,   13340,   17769,   21199,   20967,   16256,   10506
    6273,    4020,    2852,    2323,    2025,    1789,    1568,    1391
    1204,    1142,    1109,    1076,    1024,     967,     999,     918
     912,     888,     864,     858,     847,     841,     858,     824
     807,     818,     795,     801,     853,     847,     762,     751
     767,     790,     784,     773,     729,     745,     734,     767
     778,     745,     801,     718,     762,     756,     702,     751
     734,     751,     713,     686,     708,     745,     734,     756
     756,     740,     767,     713,     686,     718,     713,     708
     681,     713,     718,     724,     713,     702,     724,     718
     686,     734,     660,     605,     767,     778,     681,     692
     729,     702,     676,     724,     681,     745,     756,     718
     718,     756,     697,     666,     729,     708,     702,     660
     671,     676,     681,     666,     660,     708,     740,     676
     702,     697,     708,     729,     686,     708,     702,     734
     729,     692,     724,     702,     666,     650,     666,     681
     660,     697,     713,     666,     686,     708,     751,     660
     660,     740,     671,     666,     671,     713,     666,     671
     686,     745,     671,     660,     676,     681,     681,     692
     655,     708,     718,     671,     692,     666,     692,     676
     718,     681,     708,     713,     718,     666,     708,     718
     671,     697,     708,     671,     660,     660,     681,     681
     666,     724,     692,     681,     671,     708,     671,     686
     676,     692,     697,     676,     692,     702,     681,     660
     702,     692,     686,     671,     620,     686,     676,     681
     702,     671,     745,     676,     708,     676,     650,     630
     671,     756,     713,     692,     708,     686,     729,     681
     686,     708,     660,     729,     676,     686,     708,     615
     702,     713,     655,     697,     718,     666,     724,     697
     686,     708,     697,     718,     681,     718,     681,     686
     734,     734,     681,     697,     692,     625,     692,     718
     686,     692,     671,     681,     692,     686,     660,     655
     676,     718,     671,     729,     666,     718,     724,     724
     692,     692,     650,     655,     734,     686,     708,     676
     686,     655,     734,     666,     697,     692,     676,     666
     676,     666,     724,     718,     681,     686,     655,     713
     718,     713,     692,     666,     718,     676,     708,     676
     676,     681,     676,     681,     708,     756,     650,     697
     645,     671,     702,     671,     676,     697,     762,     676
     697,     697,     729,     697,     702,     708,     681,     708
     645,     686,     635,     702,     686,     686,     702,     729
     666,     666,     686,     718,     686,     686,     686,     681
     697,     666,     681,     676,     692,     713,     686,     724
     671,     692,     708,     686,     681,     718,     686,     702
     697,     676,     660,     686,     692,     708,     671,     718
     681,     666,     718,     708,     666,     708,     713,     708
     666,     681,     676,     666,     713,     751,     697,     697
     734,     666,     724,     697,     692,     718,     713,     686
     681,     645,     660,     676,     676,     724,     686,     718
     681,     686,     729,     686,     713,     655,     671,     686
     751,     666,     724,     708,     702,     702,     718,     708
     671,     702,     724,     692,     686,     686,     708,     702
     650,     676,     660,     724,     729,     724,     635,     671
     697,     724,     660,     666,     713,     686,     681,     671
     686,     697,     676,     724,     729,     708,     681,     718
     734,     697,     681,     697,     718,     718,     660,     676
     686,     655,     676,     713,     681,     734,     681,     666
     708,     702,     697,     660,     724,     751,     686,     697
     708,     686,     697,     666,     697,     666,     671,     671
     676,     708,     660,     686,     686,     655,     697,     655
     708,     692,     660,     697,     702,     681,     692,     697
     729,     713,     702,     708,     676,     708,     697,     713
     734,     692,     734,     713,     686,     708,     660,     708
     676,     686,     666,     635,     729,     708,     713,     686
     666,     745,     666,     666,     697,     702,     713,     666
     650,     708,     708,     686,     756,     713,     686,     666
     676,     790,     740,     702,     734,     708,     773,     645
     745,     697,     713,     740,     692,     655,     724,     681
     692,     740,     676,     697,     686,     620,     718,     630
     692,     751,     713,     697,     671,     686,     666,     686
     751,     729,     697,     724,     713,     692,     751,     702
     692,     734,     692,     660,     718,     686,     713,     697
     708,     718,     713,     713,     686,     724,     713,     756
     681,     745,     729,     655,     713,     708,     697,     718
     729,     697,     692,     718,     713,     702,     767,     734
     655,     713,     697,     655,     718,     692,     686,     724
     708,     773,     671,     708,     745,     671,     702,     734
     734,     734,     702,     713,     767,     708,     734,     729
     745,     745,     740,     713,     686,     762,     756,     740
     745,     740,     708,     708,     734,     702,     767,     745
     740,     756,     697,     778,     751,     718,     751,     681
     729,     708,     729,     740,     751,     708,     767,     729
     745,     708,     734,     784,     790,     708,     795,     745
     745,     778,     734,     756,     756,     756,     784,     751
     778,     713,     724,     778,     778,     795,     778,     784
     762,     801,     773,     778,     778,     778,     778,     812
     829,     818,     818,     818,     824,     906,     894,     912
    1024,     949,     973,    1050,    1050,    1037,    1050,     973
    1037,    1005,    1043,    1089,    1176,    1253,    1340,    1399
    1505,    1673,    1945,    2228,    2767,    3624,    4914,    6922
   10262,   14787,   19909,   22650,   20765,   15725,   11342,    8118
    6320,    5358,    5041,    5625,    6724,    8575,   10754,   11513
   10650,    8391,    6115,    4422,    3260,    2500,    2070,    1781
    1592,    1436,    1246,    1176,    1122,    1043,    1037,     999
     912,     949,     894,     894,     824,     900,     870,     790
     812,     829,     841,     795,     812,     807,     807,     778
     795,     784,     773,     762,     745,     818,     807,     745
     778,     767,     807,     767,     778,     751,     767,     729
     778,     778,     756,     762,     745,     847,     756,     718
     773,     729,     795,     718,     762,     745,     734,     767
     724,     734,     708,     756,     734,     762,     718,     702
     740,     734,     734,     708,     734,     773,     740,     745
     724,     745,     778,     713,     686,     718,     697,     778
     745,     702,     795,     734,     681,     713,     708,     767
     713,     729,     762,     713,     734,     697,     702,     751
     756,     718,     745,     745,     724,     762,     751,     729
     773,     724,     745,     724,     729,     745,     734,     708
     751,     729,     708,     697,     767,     713,     734,     702
     718,     708,     713,     740,     713,     708,     697,     718
     676,     740,     708,     734,     734,     724,     697,     702
     713,     713,     702,     767,     740,     724,     702,     697
     676,     718,     724,     676,     751,     692,     740,     686
     751,     762,     666,     729,     778,     697,     729,     734
     740,     734,     708,     697,     718,     676,     756,     666
     718,     718,     740,     702,     778,     724,     702,     724
     729,     686,     745,     729,     762,     697,     734,     740
     697,     734,     697,     773,     745,     702,     692,     713
     702,     724,     724,     724,     790,     724,     724,     740
     756,     773,     745,     734,     807,     734,     778,     795
     734,     676,     812,     740,     784,     767,     708,     740
     790,     762,     807,     801,     818,     795,     801,     790
     824,     807,     784,     847,     876,     824,     936,     924
    1005,    1024,    1190,    1421,    1722,    2470,    3387,    4134
    3994,    3540,    2820,    2275,    1764,    1560,    1391,    1303
    1303,    1318,    1429,    1747,    2070,    2352,    2343,    2200
    1714,    1467,    1340,    1136,    1056,     973,     924,     812
     841,     835,     824,     790,     812,     790,     767,     790
     778,     762,     686,     718,     812,     767,     801,     801
     778,     756,     740,     756,     756,     807,     778,     756
     784,     767,     745,     767,     713,     745,     790,     751
     681,     740,     734,     734,     767,     745,     724,     745
     734,     801,     745,     702,     729,     745,     692,     724
     801,     790,     751,     795,     724,     702,     756,     734
     778,     784,     756,     751,     740,     767,     784,     767
     784,     751,     773,     778,     756,     718,     773,     708
     724,     745,     751,     734,     784,     762,     740,     745
     795,     767,     724,     734,     718,     729,     734,     724
     751,     773,     702,     762,     692,     762,     734,     756
     751,     740,     713,     745,     734,     756,     724,     734
     784,     801,     784,     724,     724,     751,     778,     740
     773,     713,     724,     773,     740,     767,     762,     762
     734,     708,     745,     740,     767,     745,     751,     773
     745,     724,     778,     745,     762,     724,     762,     751
     724,     708,     692,     778,     762,     773,     767,     713
     740,     734,     713,     718,     713,     778,     734,     724
     702,     756,     718,     740,     745,     784,     666,     756
     767,     724,     762,     734,     740,     713,     724,     702
     773,     756,     756,/
